$2/1/1990-8/30/2024 Pit River temp-C (DLT temp),
,
JDAY,TIN
14642,3.8
14643,3.89
14644,3.98
14645,4.07
14646,4.16
14647,4.25
14648,4.34
14649,4.43
14650,4.53
14651,4.62
14652,4.71
14653,4.8
14654,4.89
14655,4.99
14656,5.08
14657,5.17
14658,5.26
14659,5.35
14660,5.44
14661,5.54
14662,5.63
14663,5.72
14664,5.81
14665,5.9
14666,5.99
14667,6.08
14668,6.16
14669,6.25
14670,6.34
14671,6.44
14672,6.53
14673,6.63
14674,6.74
14675,6.85
14676,6.97
14677,7.09
14678,7.21
14679,7.33
14680,7.46
14681,7.59
14682,7.72
14683,7.85
14684,7.98
14685,8.11
14686,8.24
14687,8.37
14688,8.5
14689,8.63
14690,8.76
14691,8.9
14692,9.04
14693,9.18
14694,9.33
14695,9.48
14696,9.63
14697,9.79
14698,9.94
14699,10.1
14700,10.26
14701,10.41
14702,10.57
14703,10.72
14704,10.87
14705,11.02
14706,11.16
14707,11.31
14708,11.45
14709,11.59
14710,11.72
14711,11.86
14712,11.99
14713,12.12
14714,12.25
14715,12.37
14716,12.49
14717,12.62
14718,12.73
14719,12.85
14720,12.96
14721,13.07
14722,13.18
14723,13.27
14724,13.37
14725,13.45
14726,13.52
14727,13.59
14728,13.65
14729,13.69
14730,13.73
14731,13.76
14732,13.78
14733,13.79
14734,13.79
14735,13.79
14736,13.78
14737,13.76
14738,13.74
14739,13.72
14740,13.69
14741,13.66
14742,13.63
14743,13.61
14744,13.58
14745,13.56
14746,13.55
14747,13.53
14748,13.52
14749,13.52
14750,13.52
14751,13.52
14752,13.52
14753,13.53
14754,13.54
14755,13.55
14756,13.57
14757,13.58
14758,13.6
14759,13.62
14760,13.64
14761,13.66
14762,13.69
14763,13.71
14764,13.75
14765,13.78
14766,13.82
14767,13.87
14768,13.93
14769,13.99
14770,14.07
14771,14.16
14772,14.26
14773,14.37
14774,14.48
14775,14.61
14776,14.75
14777,14.89
14778,15.04
14779,15.19
14780,15.36
14781,15.52
14782,15.69
14783,15.86
14784,16.03
14785,16.21
14786,16.39
14787,16.58
14788,16.76
14789,16.95
14790,17.14
14791,17.32
14792,17.51
14793,17.69
14794,17.87
14795,18.05
14796,18.23
14797,18.4
14798,18.57
14799,18.73
14800,18.9
14801,19.06
14802,19.22
14803,19.38
14804,19.53
14805,19.68
14806,19.84
14807,19.98
14808,20.13
14809,20.27
14810,20.4
14811,20.53
14812,20.65
14813,20.76
14814,20.87
14815,20.96
14816,21.04
14817,21.12
14818,21.18
14819,21.23
14820,21.26
14821,21.29
14822,21.29
14823,21.29
14824,21.27
14825,21.23
14826,21.18
14827,21.11
14828,21.03
14829,20.94
14830,20.84
14831,20.74
14832,20.63
14833,20.52
14834,20.4
14835,20.29
14836,20.17
14837,20.06
14838,19.96
14839,19.86
14840,19.76
14841,19.67
14842,19.58
14843,19.49
14844,19.4
14845,19.31
14846,19.22
14847,19.13
14848,19.04
14849,18.94
14850,18.85
14851,18.75
14852,18.66
14853,18.56
14854,18.47
14855,18.38
14856,18.3
14857,18.21
14858,18.13
14859,18.06
14860,17.99
14861,17.93
14862,17.87
14863,17.81
14864,17.75
14865,17.7
14866,17.65
14867,17.6
14868,17.54
14869,17.48
14870,17.41
14871,17.33
14872,17.24
14873,17.13
14874,17.01
14875,16.88
14876,16.74
14877,16.58
14878,16.42
14879,16.25
14880,16.08
14881,15.9
14882,15.73
14883,15.55
14884,15.37
14885,15.2
14886,15.02
14887,14.85
14888,14.68
14889,14.51
14890,14.34
14891,14.17
14892,13.99
14893,13.81
14894,13.63
14895,13.45
14896,13.26
14897,13.07
14898,12.88
14899,12.68
14900,12.49
14901,12.29
14902,12.09
14903,11.9
14904,11.71
14905,11.52
14906,11.33
14907,11.15
14908,10.98
14909,10.8
14910,10.63
14911,10.47
14912,10.31
14913,10.15
14914,9.99
14915,9.83
14916,9.68
14917,9.52
14918,9.36
14919,9.2
14920,9.04
14921,8.88
14922,8.71
14923,8.54
14924,8.37
14925,8.2
14926,8.04
14927,7.87
14928,7.7
14929,7.53
14930,7.37
14931,7.2
14932,7.04
14933,6.88
14934,6.73
14935,6.58
14936,6.43
14937,6.29
14938,6.15
14939,6.02
14940,5.88
14941,5.75
14942,5.62
14943,5.48
14944,5.35
14945,5.21
14946,5.07
14947,4.94
14948,4.8
14949,4.66
14950,4.52
14951,4.38
14952,4.24
14953,4.11
14954,3.99
14955,3.87
14956,3.76
14957,3.66
14958,3.56
14959,3.48
14960,3.41
14961,3.34
14962,3.29
14963,3.23
14964,3.19
14965,3.15
14966,3.12
14967,3.1
14968,3.09
14969,3.08
14970,3.07
14971,3.07
14972,3.07
14973,3.08
14974,3.08
14975,3.08
14976,3.08
14977,3.08
14978,3.07
14979,3.07
14980,3.08
14981,3.09
14982,3.1
14983,3.12
14984,3.15
14985,3.19
14986,3.24
14987,3.3
14988,3.37
14989,3.45
14990,3.54
14991,3.64
14992,3.75
14993,3.86
14994,3.97
14995,4.08
14996,4.2
14997,4.31
14998,4.43
14999,4.54
15000,4.65
15001,4.76
15002,4.86
15003,4.97
15004,5.06
15005,5.16
15006,5.25
15007,5.34
15008,5.43
15009,5.52
15010,5.61
15011,5.7
15012,5.79
15013,5.88
15014,5.98
15015,6.07
15016,6.16
15017,6.25
15018,6.34
15019,6.43
15020,6.52
15021,6.6
15022,6.68
15023,6.75
15024,6.82
15025,6.87
15026,6.92
15027,6.96
15028,6.99
15029,7.01
15030,7.03
15031,7.03
15032,7.03
15033,7.03
15034,7.02
15035,7.01
15036,7.0
15037,6.98
15038,6.97
15039,6.95
15040,6.94
15041,6.93
15042,6.92
15043,6.92
15044,6.91
15045,6.91
15046,6.91
15047,6.92
15048,6.92
15049,6.93
15050,6.94
15051,6.95
15052,6.97
15053,6.99
15054,7.01
15055,7.03
15056,7.06
15057,7.09
15058,7.13
15059,7.17
15060,7.21
15061,7.26
15062,7.32
15063,7.38
15064,7.44
15065,7.51
15066,7.58
15067,7.66
15068,7.74
15069,7.82
15070,7.91
15071,8.0
15072,8.08
15073,8.17
15074,8.26
15075,8.35
15076,8.44
15077,8.52
15078,8.61
15079,8.69
15080,8.77
15081,8.85
15082,8.93
15083,9.01
15084,9.08
15085,9.16
15086,9.23
15087,9.3
15088,9.38
15089,9.45
15090,9.53
15091,9.6
15092,9.68
15093,9.77
15094,9.85
15095,9.94
15096,10.04
15097,10.13
15098,10.23
15099,10.32
15100,10.42
15101,10.52
15102,10.63
15103,10.73
15104,10.84
15105,10.96
15106,11.07
15107,11.19
15108,11.32
15109,11.44
15110,11.58
15111,11.71
15112,11.86
15113,12.0
15114,12.15
15115,12.31
15116,12.47
15117,12.63
15118,12.79
15119,12.96
15120,13.12
15121,13.29
15122,13.46
15123,13.63
15124,13.8
15125,13.96
15126,14.13
15127,14.3
15128,14.46
15129,14.63
15130,14.79
15131,14.95
15132,15.11
15133,15.28
15134,15.43
15135,15.59
15136,15.75
15137,15.92
15138,16.08
15139,16.25
15140,16.42
15141,16.59
15142,16.77
15143,16.95
15144,17.12
15145,17.3
15146,17.48
15147,17.65
15148,17.82
15149,17.98
15150,18.14
15151,18.29
15152,18.44
15153,18.58
15154,18.72
15155,18.85
15156,18.99
15157,19.12
15158,19.25
15159,19.38
15160,19.51
15161,19.64
15162,19.77
15163,19.9
15164,20.03
15165,20.16
15166,20.29
15167,20.42
15168,20.54
15169,20.67
15170,20.79
15171,20.9
15172,21.0
15173,21.09
15174,21.17
15175,21.23
15176,21.27
15177,21.3
15178,21.32
15179,21.32
15180,21.31
15181,21.3
15182,21.28
15183,21.26
15184,21.24
15185,21.21
15186,21.18
15187,21.15
15188,21.12
15189,21.08
15190,21.04
15191,21.0
15192,20.96
15193,20.91
15194,20.86
15195,20.8
15196,20.74
15197,20.69
15198,20.62
15199,20.56
15200,20.49
15201,20.43
15202,20.36
15203,20.28
15204,20.21
15205,20.14
15206,20.07
15207,19.99
15208,19.92
15209,19.85
15210,19.78
15211,19.71
15212,19.64
15213,19.58
15214,19.51
15215,19.44
15216,19.37
15217,19.3
15218,19.23
15219,19.16
15220,19.08
15221,19.01
15222,18.93
15223,18.86
15224,18.78
15225,18.71
15226,18.63
15227,18.56
15228,18.48
15229,18.41
15230,18.33
15231,18.26
15232,18.18
15233,18.1
15234,18.02
15235,17.94
15236,17.86
15237,17.77
15238,17.69
15239,17.6
15240,17.51
15241,17.41
15242,17.32
15243,17.22
15244,17.11
15245,17.0
15246,16.89
15247,16.78
15248,16.66
15249,16.54
15250,16.41
15251,16.28
15252,16.15
15253,16.01
15254,15.86
15255,15.71
15256,15.55
15257,15.39
15258,15.22
15259,15.04
15260,14.87
15261,14.69
15262,14.52
15263,14.34
15264,14.17
15265,14.0
15266,13.84
15267,13.67
15268,13.51
15269,13.35
15270,13.18
15271,13.02
15272,12.85
15273,12.68
15274,12.51
15275,12.34
15276,12.16
15277,11.99
15278,11.81
15279,11.64
15280,11.46
15281,11.29
15282,11.11
15283,10.94
15284,10.76
15285,10.59
15286,10.42
15287,10.26
15288,10.1
15289,9.94
15290,9.78
15291,9.64
15292,9.49
15293,9.35
15294,9.22
15295,9.09
15296,8.95
15297,8.82
15298,8.69
15299,8.55
15300,8.41
15301,8.27
15302,8.13
15303,7.98
15304,7.83
15305,7.68
15306,7.53
15307,7.37
15308,7.22
15309,7.08
15310,6.93
15311,6.79
15312,6.66
15313,6.53
15314,6.41
15315,6.3
15316,6.19
15317,6.09
15318,6.0
15319,5.91
15320,5.83
15321,5.75
15322,5.67
15323,5.6
15324,5.53
15325,5.46
15326,5.4
15327,5.34
15328,5.28
15329,5.23
15330,5.18
15331,5.14
15332,5.1
15333,5.06
15334,5.03
15335,5.0
15336,4.97
15337,4.95
15338,4.93
15339,4.91
15340,4.9
15341,4.89
15342,4.88
15343,4.88
15344,4.88
15345,4.89
15346,4.9
15347,4.92
15348,4.94
15349,4.96
15350,4.98
15351,5.0
15352,5.03
15353,5.05
15354,5.08
15355,5.11
15356,5.15
15357,5.19
15358,5.23
15359,5.27
15360,5.32
15361,5.36
15362,5.41
15363,5.47
15364,5.53
15365,5.59
15366,5.65
15367,5.72
15368,5.79
15369,5.86
15370,5.94
15371,6.02
15372,6.1
15373,6.19
15374,6.28
15375,6.37
15376,6.46
15377,6.55
15378,6.64
15379,6.73
15380,6.82
15381,6.91
15382,7.0
15383,7.09
15384,7.18
15385,7.26
15386,7.34
15387,7.42
15388,7.5
15389,7.58
15390,7.65
15391,7.71
15392,7.77
15393,7.83
15394,7.89
15395,7.94
15396,8.0
15397,8.04
15398,8.09
15399,8.13
15400,8.18
15401,8.22
15402,8.26
15403,8.29
15404,8.33
15405,8.37
15406,8.4
15407,8.44
15408,8.48
15409,8.52
15410,8.55
15411,8.59
15412,8.63
15413,8.66
15414,8.69
15415,8.73
15416,8.76
15417,8.78
15418,8.81
15419,8.84
15420,8.86
15421,8.89
15422,8.91
15423,8.94
15424,8.96
15425,8.98
15426,9.01
15427,9.04
15428,9.07
15429,9.09
15430,9.12
15431,9.16
15432,9.19
15433,9.22
15434,9.26
15435,9.3
15436,9.34
15437,9.38
15438,9.42
15439,9.47
15440,9.52
15441,9.56
15442,9.61
15443,9.67
15444,9.72
15445,9.78
15446,9.84
15447,9.9
15448,9.96
15449,10.03
15450,10.1
15451,10.18
15452,10.26
15453,10.34
15454,10.43
15455,10.53
15456,10.63
15457,10.73
15458,10.84
15459,10.96
15460,11.08
15461,11.21
15462,11.35
15463,11.49
15464,11.64
15465,11.79
15466,11.95
15467,12.11
15468,12.28
15469,12.45
15470,12.63
15471,12.81
15472,13.0
15473,13.19
15474,13.39
15475,13.59
15476,13.78
15477,13.98
15478,14.18
15479,14.39
15480,14.58
15481,14.78
15482,14.98
15483,15.17
15484,15.35
15485,15.53
15486,15.71
15487,15.88
15488,16.05
15489,16.22
15490,16.38
15491,16.54
15492,16.7
15493,16.86
15494,17.01
15495,17.17
15496,17.31
15497,17.46
15498,17.6
15499,17.73
15500,17.85
15501,17.96
15502,18.07
15503,18.16
15504,18.25
15505,18.33
15506,18.4
15507,18.47
15508,18.54
15509,18.6
15510,18.66
15511,18.71
15512,18.77
15513,18.82
15514,18.88
15515,18.93
15516,18.99
15517,19.05
15518,19.1
15519,19.16
15520,19.22
15521,19.28
15522,19.35
15523,19.41
15524,19.48
15525,19.55
15526,19.62
15527,19.69
15528,19.76
15529,19.82
15530,19.89
15531,19.95
15532,20.0
15533,20.06
15534,20.11
15535,20.15
15536,20.2
15537,20.24
15538,20.28
15539,20.33
15540,20.37
15541,20.42
15542,20.47
15543,20.53
15544,20.58
15545,20.64
15546,20.7
15547,20.75
15548,20.8
15549,20.85
15550,20.88
15551,20.91
15552,20.93
15553,20.94
15554,20.94
15555,20.92
15556,20.9
15557,20.87
15558,20.84
15559,20.79
15560,20.74
15561,20.69
15562,20.63
15563,20.57
15564,20.5
15565,20.43
15566,20.36
15567,20.29
15568,20.21
15569,20.13
15570,20.05
15571,19.97
15572,19.88
15573,19.78
15574,19.69
15575,19.59
15576,19.48
15577,19.38
15578,19.27
15579,19.16
15580,19.04
15581,18.93
15582,18.81
15583,18.68
15584,18.56
15585,18.43
15586,18.31
15587,18.18
15588,18.05
15589,17.93
15590,17.81
15591,17.69
15592,17.57
15593,17.45
15594,17.34
15595,17.22
15596,17.11
15597,17.0
15598,16.88
15599,16.77
15600,16.66
15601,16.55
15602,16.44
15603,16.32
15604,16.21
15605,16.1
15606,16.0
15607,15.89
15608,15.78
15609,15.68
15610,15.59
15611,15.49
15612,15.4
15613,15.32
15614,15.23
15615,15.16
15616,15.08
15617,15.0
15618,14.93
15619,14.85
15620,14.78
15621,14.7
15622,14.62
15623,14.54
15624,14.46
15625,14.38
15626,14.29
15627,14.19
15628,14.09
15629,13.99
15630,13.89
15631,13.78
15632,13.66
15633,13.54
15634,13.42
15635,13.29
15636,13.15
15637,13.01
15638,12.87
15639,12.72
15640,12.56
15641,12.4
15642,12.23
15643,12.06
15644,11.89
15645,11.71
15646,11.53
15647,11.35
15648,11.17
15649,10.99
15650,10.81
15651,10.62
15652,10.43
15653,10.24
15654,10.04
15655,9.85
15656,9.64
15657,9.44
15658,9.23
15659,9.02
15660,8.81
15661,8.6
15662,8.4
15663,8.2
15664,8.0
15665,7.81
15666,7.63
15667,7.45
15668,7.28
15669,7.12
15670,6.97
15671,6.82
15672,6.68
15673,6.54
15674,6.42
15675,6.3
15676,6.18
15677,6.08
15678,5.97
15679,5.87
15680,5.78
15681,5.69
15682,5.6
15683,5.51
15684,5.43
15685,5.34
15686,5.26
15687,5.18
15688,5.1
15689,5.03
15690,4.96
15691,4.9
15692,4.83
15693,4.77
15694,4.72
15695,4.67
15696,4.62
15697,4.58
15698,4.55
15699,4.52
15700,4.5
15701,4.48
15702,4.48
15703,4.48
15704,4.48
15705,4.5
15706,4.51
15707,4.54
15708,4.56
15709,4.59
15710,4.62
15711,4.65
15712,4.69
15713,4.72
15714,4.76
15715,4.81
15716,4.85
15717,4.9
15718,4.95
15719,5.0
15720,5.05
15721,5.11
15722,5.17
15723,5.23
15724,5.29
15725,5.36
15726,5.42
15727,5.48
15728,5.55
15729,5.61
15730,5.67
15731,5.72
15732,5.78
15733,5.83
15734,5.88
15735,5.92
15736,5.96
15737,5.99
15738,6.03
15739,6.05
15740,6.08
15741,6.1
15742,6.12
15743,6.13
15744,6.15
15745,6.16
15746,6.18
15747,6.19
15748,6.21
15749,6.23
15750,6.25
15751,6.27
15752,6.3
15753,6.33
15754,6.36
15755,6.39
15756,6.42
15757,6.45
15758,6.49
15759,6.52
15760,6.55
15761,6.59
15762,6.62
15763,6.65
15764,6.69
15765,6.72
15766,6.75
15767,6.78
15768,6.8
15769,6.83
15770,6.86
15771,6.88
15772,6.91
15773,6.94
15774,6.96
15775,6.98
15776,7.01
15777,7.03
15778,7.05
15779,7.07
15780,7.09
15781,7.11
15782,7.12
15783,7.14
15784,7.15
15785,7.17
15786,7.18
15787,7.19
15788,7.21
15789,7.22
15790,7.23
15791,7.25
15792,7.26
15793,7.27
15794,7.29
15795,7.31
15796,7.33
15797,7.35
15798,7.37
15799,7.4
15800,7.43
15801,7.46
15802,7.5
15803,7.55
15804,7.59
15805,7.64
15806,7.7
15807,7.75
15808,7.81
15809,7.88
15810,7.95
15811,8.02
15812,8.1
15813,8.17
15814,8.25
15815,8.34
15816,8.42
15817,8.51
15818,8.59
15819,8.68
15820,8.76
15821,8.85
15822,8.93
15823,9.01
15824,9.1
15825,9.18
15826,9.26
15827,9.34
15828,9.42
15829,9.49
15830,9.56
15831,9.63
15832,9.7
15833,9.76
15834,9.81
15835,9.87
15836,9.92
15837,9.97
15838,10.01
15839,10.05
15840,10.09
15841,10.13
15842,10.17
15843,10.21
15844,10.26
15845,10.3
15846,10.35
15847,10.4
15848,10.45
15849,10.51
15850,10.57
15851,10.64
15852,10.71
15853,10.79
15854,10.87
15855,10.95
15856,11.04
15857,11.13
15858,11.23
15859,11.33
15860,11.44
15861,11.55
15862,11.66
15863,11.78
15864,11.91
15865,12.03
15866,12.16
15867,12.3
15868,12.44
15869,12.59
15870,12.74
15871,12.9
15872,13.06
15873,13.22
15874,13.39
15875,13.56
15876,13.74
15877,13.91
15878,14.09
15879,14.26
15880,14.43
15881,14.59
15882,14.75
15883,14.91
15884,15.06
15885,15.21
15886,15.35
15887,15.49
15888,15.62
15889,15.75
15890,15.88
15891,16.0
15892,16.11
15893,16.23
15894,16.34
15895,16.44
15896,16.55
15897,16.65
15898,16.75
15899,16.85
15900,16.95
15901,17.04
15902,17.13
15903,17.22
15904,17.3
15905,17.38
15906,17.45
15907,17.52
15908,17.59
15909,17.65
15910,17.71
15911,17.76
15912,17.81
15913,17.85
15914,17.89
15915,17.93
15916,17.96
15917,17.99
15918,18.01
15919,18.04
15920,18.06
15921,18.08
15922,18.09
15923,18.11
15924,18.12
15925,18.14
15926,18.15
15927,18.16
15928,18.17
15929,18.18
15930,18.18
15931,18.19
15932,18.19
15933,18.19
15934,18.18
15935,18.17
15936,18.16
15937,18.15
15938,18.13
15939,18.11
15940,18.08
15941,18.05
15942,18.01
15943,17.97
15944,17.92
15945,17.87
15946,17.81
15947,17.75
15948,17.69
15949,17.62
15950,17.55
15951,17.48
15952,17.41
15953,17.34
15954,17.26
15955,17.19
15956,17.12
15957,17.05
15958,16.98
15959,16.91
15960,16.83
15961,16.75
15962,16.68
15963,16.59
15964,16.51
15965,16.42
15966,16.33
15967,16.23
15968,16.13
15969,16.03
15970,15.93
15971,15.82
15972,15.7
15973,15.58
15974,15.46
15975,15.33
15976,15.2
15977,15.07
15978,14.94
15979,14.81
15980,14.68
15981,14.55
15982,14.42
15983,14.29
15984,14.17
15985,14.04
15986,13.92
15987,13.8
15988,13.68
15989,13.56
15990,13.43
15991,13.31
15992,13.18
15993,13.05
15994,12.92
15995,12.78
15996,12.64
15997,12.49
15998,12.34
15999,12.18
16000,12.02
16001,11.86
16002,11.69
16003,11.51
16004,11.33
16005,11.15
16006,10.97
16007,10.78
16008,10.59
16009,10.4
16010,10.21
16011,10.02
16012,9.82
16013,9.63
16014,9.44
16015,9.25
16016,9.06
16017,8.88
16018,8.7
16019,8.53
16020,8.37
16021,8.21
16022,8.06
16023,7.92
16024,7.77
16025,7.64
16026,7.5
16027,7.37
16028,7.25
16029,7.13
16030,7.02
16031,6.91
16032,6.8
16033,6.69
16034,6.59
16035,6.49
16036,6.38
16037,6.29
16038,6.19
16039,6.09
16040,6.0
16041,5.91
16042,5.83
16043,5.75
16044,5.68
16045,5.62
16046,5.56
16047,5.51
16048,5.47
16049,5.43
16050,5.4
16051,5.38
16052,5.36
16053,5.34
16054,5.33
16055,5.31
16056,5.29
16057,5.28
16058,5.26
16059,5.23
16060,5.21
16061,5.18
16062,5.15
16063,5.12
16064,5.08
16065,5.05
16066,5.02
16067,4.98
16068,4.95
16069,4.92
16070,4.89
16071,4.87
16072,4.86
16073,4.85
16074,4.84
16075,4.84
16076,4.84
16077,4.85
16078,4.86
16079,4.88
16080,4.89
16081,4.9
16082,4.92
16083,4.93
16084,4.94
16085,4.95
16086,4.96
16087,4.97
16088,4.97
16089,4.97
16090,4.96
16091,4.96
16092,4.96
16093,4.96
16094,4.96
16095,4.96
16096,4.96
16097,4.97
16098,4.98
16099,5.0
16100,5.02
16101,5.04
16102,5.07
16103,5.1
16104,5.14
16105,5.18
16106,5.23
16107,5.27
16108,5.32
16109,5.38
16110,5.43
16111,5.48
16112,5.54
16113,5.6
16114,5.66
16115,5.72
16116,5.78
16117,5.85
16118,5.91
16119,5.98
16120,6.06
16121,6.13
16122,6.21
16123,6.28
16124,6.36
16125,6.44
16126,6.52
16127,6.59
16128,6.67
16129,6.74
16130,6.81
16131,6.88
16132,6.95
16133,7.02
16134,7.09
16135,7.15
16136,7.22
16137,7.28
16138,7.35
16139,7.41
16140,7.47
16141,7.53
16142,7.58
16143,7.64
16144,7.69
16145,7.74
16146,7.79
16147,7.84
16148,7.89
16149,7.93
16150,7.98
16151,8.03
16152,8.08
16153,8.14
16154,8.2
16155,8.26
16156,8.33
16157,8.4
16158,8.47
16159,8.54
16160,8.62
16161,8.7
16162,8.78
16163,8.86
16164,8.95
16165,9.03
16166,9.12
16167,9.21
16168,9.3
16169,9.4
16170,9.49
16171,9.59
16172,9.68
16173,9.78
16174,9.89
16175,9.99
16176,10.1
16177,10.21
16178,10.32
16179,10.43
16180,10.55
16181,10.66
16182,10.78
16183,10.9
16184,11.02
16185,11.14
16186,11.26
16187,11.38
16188,11.5
16189,11.62
16190,11.74
16191,11.86
16192,11.98
16193,12.1
16194,12.22
16195,12.35
16196,12.48
16197,12.61
16198,12.74
16199,12.88
16200,13.02
16201,13.15
16202,13.29
16203,13.43
16204,13.57
16205,13.72
16206,13.86
16207,14.0
16208,14.15
16209,14.29
16210,14.44
16211,14.58
16212,14.73
16213,14.86
16214,15.0
16215,15.14
16216,15.27
16217,15.4
16218,15.52
16219,15.65
16220,15.78
16221,15.91
16222,16.03
16223,16.16
16224,16.28
16225,16.41
16226,16.53
16227,16.66
16228,16.79
16229,16.92
16230,17.05
16231,17.18
16232,17.32
16233,17.45
16234,17.58
16235,17.7
16236,17.83
16237,17.95
16238,18.07
16239,18.19
16240,18.31
16241,18.43
16242,18.55
